0.25599458967338184
1.9026481636039736
6.763128429142103
15.566268408604849
26.38459411407759
35.11116899724051
37.42712472898329
30.806037260838977
15.58583367495244
-5.198290793667606
-26.95320502739173
-45.06290311669659
-56.22835066743448
-59.203850574440736
-54.791561566039746
-45.23405569707309
-33.32083849666663
-21.540622252044557
-11.521251881155802
-3.8580374514234883
1.7151114497670132
5.947189578138305
9.647301857485928
13.364292109508881
17.248392721431284
21.087452069954537
24.457495658000717
26.912859608165675
28.14539715428566
28.06509332301591
26.794124532870782
24.600397378490975
21.80621612343889
18.70628299430868
15.520885078773055
12.383641652152146
9.348247452100289
6.409573816108589
3.5381321765564255
0.7164484008611058
-2.0382477797813623
-4.67102455372697
-7.100297289269907
-9.235411574145255
-10.9964996512847
-12.331908332798026
-13.226998838638965
-13.701770859331331
-13.800754071532834
-13.58056231352523
-13.097011068958997
-12.393399659754863
-11.49576960119038
-10.417324016788491
-9.169560904031881
-7.776835057267508
-6.284237261760554
-4.750666194988829
-3.233545740549544
-1.7765289338216572
-0.405629666916413
0.8666589566256903
2.032885882613287
3.0826707354647374
3.9997704115794024
4.765958214306739
5.368706652314425
5.806664681549045
6.089635541192858
6.233560829186842
6.25227396952169
6.150406183753433
5.923849022050914
5.569322682518428
5.095789248256653
4.527489769554329
3.896138447484744
3.2304853820590376
2.5509041142510496
1.869352897608496
1.1937943436281833
0.5343614849208609
-0.0946608347515272
-0.6776063065278053
-1.2004427706930194
-1.6530120304659315
-2.0313044369214746
-2.3379366469332035
-2.579366083043131
-2.7615959014011473
-2.8872078659114404
-2.955086769728109
-2.9622733725859245
-2.9054928093972934
-2.7812360518347234
-2.5880197983865925
-2.332060266769912
-2.028632767287628
-1.694829776022472
-1.3427563449198543
-0.9807008981349232
-0.6181193320303089
-0.26824915597127186
0.054332718307624095
0.3400069550194249
0.5882553422860011
0.8046770432777299
0.9934322636554136
1.1530861121251554
1.2795002663183905
1.370741787449409
1.428318328994425
1.4548058238396422
1.451166490591278
1.415889404708771
1.3457436293486293
1.2375110704600711
1.0905975254232794
0.9096182329379736
0.7060167539250617
0.49828711204990916
0.3076892056678141
0.1484336475781322
0.02055519234462788
-0.08774590061667095
-0.19215678216372514
-0.3037786357253412
-0.42232224083048503
-0.5349975692876802
-0.6228582871557439
-0.6707062943679535
-0.6752660207954898
-0.6467026340519001
-0.6021449133052232
-0.5566199481689097
-0.517509983185241
-0.4839696242195606
-0.4499333808868594
-0.4085870594965871
-0.35589018046503135
-0.29177034282342007
-0.2188840849758949
-0.1397929691753429
-0.05621226051163952
0.027388522787021224
0.10142211269138071
0.15503483383547406
0.18213786148388023
0.18462800382119776
0.1721376797198643
0.15836581111929637
0.15505579143059411
0.16737934248468103
0.1936502239595736
0.22800330579587214
0.2629593335628265
0.2909878515893533
0.3059361384793905
0.3045853981821107
0.2874937225116187
0.25849302795287543
0.22202257913212825
0.1792649893287481
0.12863982081327205
0.07048711756226331
0.007678790399808205
-0.05700761574928373
-0.11977389008061595
-0.17376482803877774
-0.21147386444323915
-0.22874481042256653
-0.22581105864101433
-0.2058447390210478
-0.1738070922344591
-0.1370512351773399
-0.10541810262275039
-0.08753134105799518
-0.08559642917958438
-0.0936121855431393
-0.10076178220041006
-0.09827169360010334
-0.08434922284271895
-0.06324617824739837
-0.04075079192191171
-0.020247326310510107
-0.0016050075609724615
0.017075521567886064
0.0371624682536896
0.057876479741135724
0.07492490265087248
0.08192211725207846
0.07621919765202737
0.0627989993461959
0.049925609495286016
0.04085644520710445
0.03191303784903936
0.019568143876702526
0.006521619111642993
-0.0013575269659500122
-0.0009213050988896715
0.00811207467862568
0.02623110966036464
0.05384008353335039
0.08762823311281609
0.1197647332603008
0.14301054089688991
0.15516350956887492
0.15659574030790324
0.1455134131709625
0.11788888724186133
0.07242291243099958
0.015663533285619924
-0.038250176816566214
-0.07388310672212159
-0.08240268730383798
-0.06674447793137717
-0.042180764376622215
-0.02956283866738904
-0.041743281863184545
-0.07531262884415235
-0.11737894130574902
-0.15787630272387795
-0.19314123682276596
-0.22101665737270831
-0.2360323774043234
-0.2288185481199152
-0.19110136794900048
-0.12498619116745693
-0.04666113010440964
0.022348321169058508
0.06772057525941205
0.08772632936323525
0.09008798130508143
0.08475750641129537
0.07924596250168758
0.0788112209982913
0.08697984699805467
0.10450199309730923
0.12921257969463357
0.1566268931539057
0.17915451674278382
0.18536792189509294
0.16399487943147717
0.11246700109505303
0.04170348321435968
-0.028476611251771672
-0.07871391207910712
-0.09764273034445742
-0.08588049651900571
-0.05572725458972119
-0.025504627756335357
-0.010949954347268379
-0.01834354774007489
-0.04239213813825065
-0.06907325051783218
-0.0824202615623909
-0.07258258459848076
-0.039829597909675246
0.007181664650934019
0.05514356809984714
0.0900901885356074
0.10191428429507748
0.0876124786595361
0.051449441795760095
0.0030483790355470275
-0.044779062964953355
-0.07908040675477815
-0.09124633014975503
-0.08069756984996737
-0.05520679436208284
-0.0268154431042507
-0.005959478065044162
0.0014216681040187668
-0.005907858177756409
-0.02389083538037798
-0.04370505148459467
-0.055502790792210446
-0.05375796893175875
-0.04140731316648306
-0.028757486071979164
-0.025478216972992317
-0.03210822841188281
-0.03981703043448538
-0.0387686794431966
-0.025195779043165466
0.0002759364259630401
0.0363847638330857
0.07892806721794118
0.1177636958535383
0.14040981596676963
0.13896498475806912
0.11389189075953923
0.07297841377017156
0.027550409761651268
-0.011600430420395824
-0.03739884883506953
-0.0484484073702746
-0.049516642508919455
-0.04859844461022973
-0.050079580226469605
-0.05047522184518176
-0.042023173704249836
-0.019365138229731745
0.01731708608418643
0.0625905129654711
0.10680622258735525
0.13823750265687906
0.14733738566111376
0.13122231548051008
0.09464351926676182
0.04620142190349619
-0.005617853506153556
-0.05231431031358699
-0.08485914239928538
-0.09710954872616573
-0.09007028023796318
-0.0726623094007491
-0.058086814274964704
-0.057015449374866176
-0.07149192116100173
-0.09380478518999406
-0.11064745485635434
-0.1100320633133824
-0.08787775258776652
-0.050967581094737174
-0.014816744850419866
0.003800616318013282
-0.0018846175544305725
-0.02179094246098878
-0.034937500156527045
-0.024262144484493185
0.012399577073176578
0.062244297732859416
0.10556108361059023
0.12564504695223322
0.11552756815786705
0.07975755027523476
0.03210235987645414
-0.009849149745446276
-0.03150696033614384
-0.026070793328093686
0.004293312686439926
0.04847086951142003
0.08835802152467705
0.10656202101138897
0.09508121515557275
0.056840207875540255
0.001792794496080441
-0.056781897023869723
-0.10536943567872123
-0.1338493425536451
-0.13790263495585597
-0.11873471398602908
-0.08203782007532567
-0.03689352648909651
0.0072859130740414585
0.04417899736864855
0.07106072248725079
0.08756805730186658
0.09525883876453918
0.09713596239407923
0.09578396688956373
0.09163207179328263
0.08310522803373876
0.068178229846398
0.04631453758465311
0.020102005048916086
-0.005220617801914358
-0.025159559956401484
-0.03931977027938552
-0.05172168659651319
-0.0675166015758796
-0.08760734295746211
-0.10608031469903507
-0.11388718892472108
-0.1055535754671042
-0.0835196650271002
-0.05761681876463441
-0.039122493645662115
-0.03168949284306218
-0.028190113561945424
-0.01865679224080178
0.0006559404065568444
0.026223175580408386
0.050528372731901895
0.06570212905894039
0.06766198580638624
0.058624696765377494
0.04523510815933186
0.03290660699942589
0.021408204008103372
0.0066429511149552305
-0.013894370868890973
-0.03792022309413922
-0.05978328928461799
-0.0752188487677072
-0.08368137479580584
-0.08432939354500486
-0.07244879554980863
-0.043130723353849
0.001874492129561936
0.05103465891195924
0.08743656176374605
0.0990461819368557
0.08621913608281451
0.06015500187795546
0.034722105945486414
0.019047318627028853
0.015867835368198496
0.023700499672850997
0.038892250962232436
0.057135748851737195
0.07468155704344821
0.08763154162358405
0.09104687983095486
0.0818574977123178
0.06235793585444452
0.038738687789929754
0.017477108235262842
0.00451059913592268
0.004162453770449284
0.014626768929025147
0.026544536664253132
0.028429476070145315
0.012118505745766242
-0.025190772202100864
-0.07986248420279779
-0.14195701805830865
-0.1977553900053395
-0.2337332711860018
-0.24048224019016712
-0.2152775642588189
-0.1626810776875275
-0.09331488013436445
-0.021476398217612963
0.037537333757326284
0.07167290342822996
0.07821045188391954
0.06562073157763847
0.04767761697975498
0.03593728500884039
0.03585780316108971
0.04602466075849059
0.05998575895640535
0.07037095585792338
0.07252189130323271
0.06525718689542957
0.049862988793221374
0.028926927851959258
0.004963371138359811
-0.019816196366644487
-0.04148554638289479
-0.053149317284043734
-0.047030799452204265
-0.019286213164294727
0.024750442567615064
0.07021657870927829
0.09999830125613453
0.10393983240012446
0.0828916697847497
0.04592554870740995
0.0048454370014369835
-0.02892560013980682
-0.04613585739215418
-0.04306165939275669
-0.023471108800927447
0.004116700768842456
0.030694709970654953
0.04839354995432357
0.051095555654627214
0.03662973180878497
0.00852666684161578
-0.024964236481016353
-0.05374694378386218
-0.06909373128612267
-0.06606956282755035
-0.04474401807629018
-0.010804209674067075
0.024836797518998005
0.049246455365754865
0.05311246470975768
0.03481770934529359
-5.05880382764487e-05
-0.041569665212554785
-0.0775807714167355
-0.09662501408361948
-0.09277380350716793
-0.06819375749060179
-0.031714560537550646
0.0038906694027897454
0.025900070565475643
0.02750011814852992
0.011348594248753011
-0.012632676058290437
-0.03314677317713632
-0.04312290468130451
-0.041932455746187404
-0.03377239546613455
-0.02510430034246145
-0.02159957324427647
-0.023332113651970604
-0.023203751890889163
-0.012914304823272563
0.00991089366212819
0.04082167945326884
0.07208927791283935
0.09610636296604991
0.1078960354858623
0.10675113672124914
0.09579067042232624
0.07961117855954856
0.06172274917095416
0.044047073020757735
0.029278105763529315
0.021379962301004155
0.020226940842235804
0.017164725660737155
0.0005113742512349272
-0.032755063739437124
-0.07273633102974027
-0.10539509555917818
-0.12279900748927158
-0.12306982600724851
-0.10517091972974052
-0.06925925950379959
-0.022212781509457755
0.02153995343283896
0.048390620246323124
0.05442805461147389
0.045935753356596436
0.03401563505906074
0.02953758548094678
0.038750239602746504
0.05880698704323935
0.07846178899213427
0.08541675868662102
0.07246957648452042
0.03937992003488128
-0.006242493115787409
-0.050901660234489755
-0.08237708532336707
-0.09595995899299128
-0.09373973534755699
-0.07963937885506077
-0.05540973769456556
-0.020698122700235785
0.022349904021753707
0.06480946683528463
0.09251247064726836
0.0926133981098252
0.060474273300685305
0.0031410339138384785
-0.06256248324287263
-0.11687638277222792
-0.1453311416173129
-0.14395715885709098
-0.11923261753095621
-0.08297023524531663
-0.04462919440230424
-0.00745507583303108
0.027665424426275405
0.057188643839537645
0.07617119729379135
0.08323343957609286
0.08224320117348909
0.07880625074386595
0.07622558374161452
0.0751468783632062
0.07469427386971812
0.07170035568086612
0.06048032940292819
0.03641861838916213
0.0004942930874710788
-0.04002018888977227
-0.07514420237207527
-0.09667012833449236
-0.10049140416015419
-0.08681157793972658
-0.05949733144698022
-0.025020298235487626
0.009313094066013133
0.03825484268348006
0.06084141939106655
0.07933434760931174
0.09516673051573746
0.10463213202472124
0.09958914452741686
0.07531108773861492
0.03694597045968957
-0.0032900755278760935
-0.033658344638398445
-0.047609607729938455
-0.04513712335143692
-0.03309986362587131
-0.023204787939857544
-0.025517926355554277
-0.04087940537618852
-0.05977667500814649
-0.06990333443702831
-0.06513150414931354
-0.047867106619107744
-0.024127140501464334
0.0013013858947236862
0.02317142457400822
0.03357886529467859
0.026888403239149546
0.0058210618734599075
-0.01939448257841677
-0.037728864360419695
-0.04453916814441582
-0.043078798966211855
-0.03875766780715622
-0.0327801647004149
-0.021530859653974617
-0.0011053859815942889
0.027923414683476436
0.05887881041358582
0.08063224600299786
0.08206018601090831
0.057667190728647025
0.01103246626552383
-0.04587008293555581
-0.09686346169981229
-0.12722358156449678
-0.12784489289316409
-0.0960235488852385
-0.035645262118308915
0.04052389326725005
0.11122519052417204
0.15453117343939804
0.15926628389593445
0.13090910638774014
0.08648958972032944
0.04409687662270238
0.016186374559646485
0.00730213297686589
0.013079046471716337
0.022389640650475287
0.0242458480651661
0.014514996447267822
-0.0027172892409574566
-0.01898107872698258
-0.027942764842952536
-0.031108207662162258
-0.036662967995122864
-0.049908270860809456
-0.06594845744361558
-0.07396776057145615
-0.0671466663824979
-0.0474077037940355
-0.022554323403001036
-0.0005755924482277186
0.01421416034379
0.022384463183363422
0.028925342933412562
0.04010867540802002
0.05784833555588435
0.07730699471582053
0.09027852529791647
0.08927835323088193
0.06970368178315027
0.03134860958688117
-0.020525644849686844
-0.07520270410418746
-0.11937359000951346
-0.14336566517938837
-0.14607694644309893
-0.1334236684070937
-0.11177563629243842
-0.0838311997346008
-0.0510502834261027
-0.01788673458188439
0.007769564942323524
0.01830671916357083
0.011689070993392486
-0.005665796900942627
-0.020878397676133503
-0.020686472713677573
0.0013787743621402893
0.041298720678791645
0.08677620018735752
0.12328206814256584
0.14054573630774603
0.13697411603858572
0.11935720088102458
0.09739164786408741
0.07737745493935157
0.05981352772183211
0.0418931466338513
0.021395612152335014
-0.002693993205052779
-0.03127686126549064
-0.06388808552305789
-0.09645669283008525
-0.12176035473664018
-0.1337481110099826
-0.13166553470991943
-0.11884195184075703
-0.0983613419085068
-0.07086682746028314
-0.03557202317206688
0.007153605885781553
0.05363164118576605
0.0969127885833521
0.12992372995165244
0.14929412593115496
0.15578346903404217
0.1515950354999036
0.13783029930969531
0.11401155678070837
0.07966150864601776
0.036653595193452584
-0.009246630054529595
-0.04963613414219428
-0.07736122811132727
-0.08936176610924697
-0.08730012459070335
-0.07774044265176665
-0.07004435360657711
-0.0703598318423417
-0.07740645560512394
-0.08517610592282464
-0.08850016448713174
-0.08565102748850316
-0.07767785878098449
-0.06737141009839069
-0.059660004434915745
-0.05994246976510671
-0.06749437639423692
-0.07191830816181691
-0.05983299200149109
-0.024929945873059703
0.027967574639030476
0.08554900108286831
0.13206481253430907
0.15630801444312592
0.15597660884175443
0.1361633728859267
0.10579101268241414
0.07738969660272954
0.06416858753249273
0.06873153997227206
0.0769077902643503
0.06835167224473677
0.03162932682670322
-0.029900363756791497
-0.09992765474816451
-0.15553928663789032
-0.176853715453368
-0.15585014523375548
-0.10058683799868426
-0.032511398117749585
0.023748868019182905
0.05303432507941393
0.055557203807706734
0.04242525160519552
0.026964136041871097
0.01909976395795316
0.022965575321286312
0.035420995879488146
0.04763024368377773
0.05198984021420157
0.04932139745625386
0.04722451153782337
0.04930495301792608
0.04848846797926368
0.033383695720213616
-0.0006636244994801185
-0.046941179862284105
-0.09109605050741457
-0.1195556752427639
-0.12573013934999777
-0.10936404591680197
-0.07342936297344686
-0.024697966879879643
0.02397468069345876
0.056989979711161314
0.0663008261223486
0.057312641603425064
0.041713920955813104
0.027053610577443064
0.015403014499802851
0.008075509180124476
0.00666734115616939
0.008688072592829194
0.006783927240952954
-0.002933960347422368
-0.014645401147307047
-0.01916780350188098
-0.013742385730253479
-0.003301731931604889
0.004472476719499983
0.003621615075395143
-0.00778911472815054
-0.02759392873123175
-0.05168694663917633
-0.07573153322196062
-0.09412814400107093
-0.09949521531373601
-0.08622700629522578
-0.05535732602517407
-0.015546403582590615
0.02089980636355155
0.04483672016731641
0.0568817631033027
0.06660427948849723
0.08102581826653141
0.09560402397137786
0.09936386861159052
0.08545753087564271
0.055666002074221024
0.01914359353559679
-0.011944175425593583
-0.028675848365112007
-0.02917773539788692
-0.01674171450300481
0.004547666269939139
0.0322758140562299
0.06439872409197271
0.09495155910630076
0.11203364099988164
0.10232672272471086
0.06005199563432087
-0.006477628396177673
-0.07743412083772669
-0.1307412725088254
-0.14968673151743128
-0.1276996176289648
-0.07226170004728011
-0.003527096324504625
0.05491789694406783
0.08660206052228946
0.08713990929966309
0.06286786132570599
0.02576488584253042
-0.012319871584365621
-0.04271017634301735
-0.059065655194989214
-0.057597413290204055
-0.04060175884067471
-0.017168009692139344
0.0013660610689568975
0.0065492768746473196
-0.004516744641406334
-0.028661916757509856
-0.057261541998699886
-0.07921660626996507
-0.08725547086612573
-0.08223664691528622
-0.0704923504208968
-0.057617277169040484
-0.04429668659071599
-0.026919320435366142
-0.002518243943350429
0.026936797740356698
0.05507903814934605
0.07380701967509375
0.07343633473727199
0.04335846318011857
-0.02277384593975268
-0.12303296725370587
-0.24590813759411678
-0.36694307806689536
-0.449951146060215
-0.45964893455520583
-0.3766959909876117
-0.20385465953643372
0.036415862049186676
0.30687979288866885
0.560742421767599
0.7512541740623394
0.8476461113258801
0.8464884617870592
0.7678160912620542
0.6417158048116361
0.49632009141765476
0.3512629704162018
0.21598972958025203
0.09121395873407323
-0.027346542425199988
-0.14379453647982066
-0.25811572905989366
-0.36559725748806626
-0.45803696402676763
-0.5244931330930362
-0.5535524838064951
-0.5393158434351111
-0.4873616981418676
-0.41453874391937495
-0.34166264547162384
-0.28414728316293575
-0.24590958569747323
-0.2202410311443066
-0.19736676769779052
-0.17074919309040362
-0.13605678420285267
-0.08765282789123571
-0.018326115076094135
0.07861831391914081
0.20647653176098588
0.3621561330466039
0.5319925664673288
0.6862917401381408
0.7820382301346935
0.7794904312195292
0.6607849240018329
0.4379810424891184
0.15030752861120322
-0.14730827246241446
-0.4024154106137386
-0.5817240448895413
-0.678272615595831
-0.7063631248873373
-0.6871895683885382
-0.6370939748917528
-0.5674038929664565
-0.487727820559266
-0.40367519042057853
-0.3143073964954209
-0.21455017163544143
-0.0994494561767797
0.03198856614280565
0.17362632557735513
0.3120446095327636
0.43109439816400014
0.5186383826779217
0.5699487799909764
0.5851684490443743
0.5659757171551032
0.5165849539974467
0.44598859385295275
0.36728825352486605
0.29467079461765366
0.23864305430433463
0.2006120640482708
0.17148555450835254
0.13676833851167716
0.08335883284415482
0.002667342687248664
-0.10896340319138731
-0.2499221270338423
-0.410700000118023
-0.56868333821093
-0.6889538069215566
-0.7358807430101639
-0.6871220003321029
-0.542052015884021
-0.3225772196115937
-0.06624467611362561
0.18588938255432502
0.39964741152190764
0.5509500956233566
0.6262182423941
0.6250035700193006
0.5601488996277566
0.4522230039880575
0.32344466038344777
0.19372678584574982
0.07709573040591644
-0.02063502971300249
-0.10120001855623942
-0.17047679090957535
-0.23369876068428863
-0.2912916824968653
-0.33775078161219313
-0.36485109649785813
-0.36666787732218104
-0.3424000943890322
-0.2961859596056441
-0.23503969268787
-0.16625797120621533
-0.09655816139793352
-0.03342210075788091
0.0150339101736493
0.04386730809796402
0.054124053622806825
0.050317031206393324
0.03693925086301804
0.019946872181203466
0.01014428039718264
0.02042917076179314
0.056558612275293685
0.11059636663902
0.16334113921778146
0.19395199781472622
0.1913434723186173
0.15950641029153415
0.11263367052506526
0.06537701397902948
0.025407695757973456
-0.008192038749050438
-0.04006221185000979
-0.07150214599121077
-0.09806152032887308
-0.11352986000555451
-0.11465157335767963
-0.10138944573595428
-0.07468734942935473
-0.03550176666315981
0.014243926213492089
0.06939626343191416
0.1197886337222753
0.1528626760095127
0.16138576280766476
0.14844183485773313
0.1234075743155002
0.09475733322379948
0.0675082716134106
0.04429943578314552
0.0254485129397332
0.007117935653051799
-0.01777583960191749
-0.05306845089381238
-0.09442626752790827
-0.13288922415297635
-0.16122431787774333
-0.17527769457768638
-0.17211553660934045
-0.15034246854572494
-0.11314259236693008
-0.06774988439437715
-0.017554124916694225
0.04458581104321829
0.13332892273987104
0.25842202214976706
0.40945907337505416
0.5515732656709663
0.6378275417623567
0.6286978893854923
0.5077320508562106
0.2874097022000983
0.004421310844921311
-0.29200667531846114
-0.5539178259481283
-0.7461201030565374
-0.8519659616442411
-0.8723964572390409
-0.8207566429822284
-0.7175587934862877
-0.5869648618456788
-0.4519508121443985
-0.32647763538677876
-0.21142857927794145
-0.09983972375847244
0.014109770185464887
0.1300056873953223
0.24173737947439944
0.34167956415044054
0.42487988674784094
0.4898666023225493
0.5354198325814126
0.5581502829672509
0.5561993385090702
0.5339123924173428
0.4998136961320354
0.46055714820341315
0.4171959729776851
0.36606529162239376
0.3024092455147731
0.22319705571180998
0.12894995939022807
0.02591295783075992
-0.07411912988533925
-0.15873208888841622
-0.2210866627860305
-0.2618996625804353
-0.2861293525217606
-0.29868115986405014
-0.3030891984700714
-0.30167278862500546
-0.2945483998558262
-0.2794101168407521
-0.2543893525927377
-0.2214383695958796
-0.18637419233182487
-0.15553922977469106
-0.132179963742233
-0.11505204622926954
-0.09977521739391407
-0.08198651000971932
-0.05978111161816585
-0.03360964176040136
-0.004457400713255198
0.027967228353466198
0.06477895028717068
0.10386969072080003
0.13628865312329724
0.14903888728935916
0.13322764509108026
0.09101781398188402
0.03722228521491347
-0.005722535497416303
-0.017713648184778275
0.009554883400405917
0.06844743713402754
0.13876324141708904
0.19684422286160985
0.22420784738005867
0.2128396576035791
0.16847499895963125
0.10913818210732884
0.0566286059832824
0.02629584150960662
0.02147898503321316
0.034026440534976846
0.04925996305316363
0.052739592137876344
0.036089671587346966
-7.71129536409898e-05
-0.04753382337668971
-0.09531621462198589
-0.13386205117950972
-0.1565501956020982
-0.16100028589609097
-0.1504446881964281
-0.13328288534828017
-0.1196411565281055
-0.11573976909928699
-0.11989700704164793
-0.12315837666618609
-0.1146227016294047
-0.08875396141421286
-0.04847947573511331
-0.0024008266494447567
0.03857370467924868
0.06423357174888875
0.06998377010241538
0.05934648149569207
0.039793303289310814
0.01790756391072524
0.00042272355873582135
-0.004293363736156755
0.008924092982677295
0.03591560085338788
0.0643404814307503
0.08187166027422987
0.08361750130611888
0.0731678017796062
0.05846076985294468
0.046333313591743974
0.0389294871445956
0.03340307046073603
0.024320703865953912
0.007659354058956368
-0.014924529317651099
-0.03517954201717689
-0.043398846386601145
-0.03489316399968693
-0.011470233272624732
0.02048865264191902
0.051184194499065305
0.06923564042427496
0.06664564631601008
0.043926500021628234
0.01024381719703188
-0.022158353395097564
-0.04435122755319121
-0.053423530978170514
-0.05176887980206552
-0.04461870787435465
-0.036661529748960545
-0.030078885474969903
-0.02576758519626239
-0.024756333219583003
-0.026731795425604617
-0.028767357506219452
-0.027708844386963402
-0.02324431270911284
-0.017837945195054376
-0.01442127367385469
-0.01417854474659893
-0.015526381418938133
-0.014370769332048195
-0.005088655704251259
0.016374084237418516
0.04677131589817343
0.07364942957612677
0.08206545497328788
0.06463074888781128
0.027475303040542923
-0.011747617768789097
-0.03368106091207301
-0.029173258927787486
-0.004519070930408389
0.024163575704327367
0.041378028141177046
0.038781050223975405
0.01691268518127964
-0.015063263113203308
-0.04270934997729005
-0.054010019844214927
-0.046905692510451305
-0.029922653620341272
-0.0150922671197471
-0.009952173044358317
-0.014761675330227923
-0.024395343235483723
-0.03119168841520032
-0.02697756617067191
-0.006566257494504908
0.026364140603540837
0.05789136709203307
0.07172918815765039
0.05999662914370832
0.028449009231856698
-0.007229845246415678
-0.030742959364879793
-0.031968819550136765
-0.009667588610587443
0.026344854605051145
0.057441024377681955
0.06642792126816549
0.04755908871766709
0.007667838385290664
-0.03944704467935507
-0.07937754680564649
-0.10194947175120264
-0.10354665714840247
-0.08509231025426718
-0.048485121331685296
0.003071597726066036
0.06212816527402932
0.11636421098165062
0.15219016168376362
0.16109184808774363
0.14344198105134065
0.1060562392593721
0.05753087742485194
0.006357619848825297
-0.039695908704574595
-0.07513838491207113
-0.09756049022841927
-0.10736405701855428
-0.10795706482918233
-0.10483915299935911
-0.10195530334685501
-0.09873849717782962
-0.09180350849118744
-0.07994653320412742
-0.0660439879233463
-0.052266534816422947
-0.03593507674686865
-0.013338119762219838
0.01503932060571534
0.045330901373065856
0.07213244448357739
0.08868971872941452
0.09093769701419284
0.08284223485970099
0.0755946075955001
0.08035816331044808
0.09920326891873771
0.12120405005820693
0.12813359958087558
0.10670626863846211
0.0569601706844593
-0.011840858712343999
-0.08923014723020217
-0.16296160387251213
-0.21628039621634387
-0.2331085103196732
-0.20675391272199103
-0.14402687087588262
-0.062298054945989584
0.017995220913787607
0.07961424792438991
0.1113321579205723
0.10984551882011896
0.0815770850293062
0.04268402166940964
0.014145493546128068
0.011609061466191978
0.037189485099077546
0.07961536498754117
0.12105373952503994
0.14549189988915426
0.14459219587268574
0.11929890332162782
0.07797101761278932
0.03277211589994364
-0.00415900159145044
-0.024326720376903685
-0.025985561053563408
-0.015224163103748453
-0.0042700383723092705
-0.00711974199453029
-0.032665530985310914
-0.07845083011455371
-0.13048783547061035
-0.1702322409049712
-0.1838452683412943
-0.16845229069623158
-0.13251575009982952
-0.09027418513515864
-0.0540311650784594
-0.02912470133044437
-0.01342357015562351
-0.0007750591106284142
0.013503279033657486
0.029404750952188953
0.04392079488808795
0.05420233244400766
0.05867528786682038
0.057166545979698426
0.05107930952670119
0.04290656697968787
0.03509127252733228
0.02893291621199632
0.02425689817796165
0.02010469521229824
0.015985985556843718
0.012997686950312358
0.013422877379367766
0.01808570461059965
0.024110304520022302
0.026716814628367343
0.02414633060619454
0.019200627392529424
0.014000859262386853
0.0063302350276617375
-0.004981606237324302
-0.014676209787555752
-0.015813473657261583
-0.007823431855146761
0.00286553263331972
0.008637215634600709
0.006015079438526458
-0.0028544240375734907
-0.012468026522944025
-0.018369951235642907
-0.019719232736961224
-0.017429622598874515
-0.011339291919839348
-0.0003419088957020387
0.015781552369412144
0.03503452998992215
0.052675121501449165
0.06241688875210427
0.05989678009676074
0.04583022368428368
0.02573522189468609
0.00649487571581462
-0.006926568592632333
-0.012223212879003686
-0.00914623505812253
0.000547301451479798
0.012532842835453986
0.019496913784204317
0.013099147931520727
-0.010840059131018195
-0.048558567224887994
-0.08939646526499943
-0.119333937694623
-0.1258371285397247
-0.10404564528457091
-0.06071818486650875
-0.01278320201165263
0.01954381751885178
0.02245928742546731
-0.0043291130982774095
-0.047500562446595285
-0.08766220191868157
-0.10907582721974658
-0.10360480168480249
-0.06998815153656934
-0.01416885056679873
0.050393583126413344
0.1055214652783249
0.1348388401454634
0.13212800342278228
0.10490905921392049
0.06851849529793573
0.03553323116316627
0.01042425519111706
-0.00676042490017148
-0.014927551107682797
-0.012024013176266363
0.0015487714884763193
0.021339001794882684
0.04071537489179751
0.0542907188792084
0.05951129665458328
0.056422087252055615
0.047820004744573
0.03893123969591141
0.03447210024708077
0.03406418822527424
0.03186526571952865
0.023925510427028937
0.013504063648125019
0.00496346714649212
-0.0036548066937723417
-0.01741150142223173
-0.03719055078813246
-0.058646198631853455
-0.07621787179501548
-0.08687450153969348
-0.09100811686664477
-0.09054101195683571
-0.0866450326035139
-0.07860359590821546
-0.0633256294778266
-0.037018649595801895
2.7580122699599752e-05
0.04022134868812419
0.07111417003910589
0.08163650965515794
0.06803340292698694
0.03628243335445533
-0.00030781566459878174
-0.02753840905977348
-0.03687199235093483
-0.0269874233075796
-0.0016939655679957671
0.031093737441153207
0.06038983711063877
0.0756381050514225
0.07072918716206017
0.046321755585675445
0.010251456333995407
-0.02507740971298985
-0.04851368648257134
-0.05558176322629964
-0.050016591279390656
-0.04087104926376008
-0.03728580473755682
-0.04470720891815325
-0.06308915289681441
-0.08533487242216045
-0.09894828413403337
-0.09325638991947412
-0.06590816987493478
-0.022646533839203162
0.02649079376763766
0.07068974155596897
0.10237605126522342
0.11968808245373842
0.12420849942846532
0.11726297295858397
0.09926503823370181
0.07190893973516727
0.04089231930408911
0.015053877270490568
0.00013398473052837756
-0.006011053667246524
-0.010131250784254121
-0.01608471725755788
-0.021520982264558796
-0.0214484517378434
-0.012967703408595859
0.00455284472769114
0.03054979360792758
0.06092979153441409
0.08622125870921195
0.09482184342690714
0.07918693544974291
0.040759357843199076
-0.009626763060230928
-0.05706209054879895
-0.09009020648880636
-0.10526199997967503
-0.1069382768586227
-0.10407474715766683
-0.10606545125893124
-0.11784339334855237
-0.13559780726160742
-0.14715793216383038
-0.13879521835995523
-0.1047432733007844
-0.05218486404318817
0.002215788754168335
0.041104652423778996
0.0549601241375622
0.04586932514128005
0.025688492371580884
0.011283974890141255
0.017465868374551954
0.0482091861003113
0.0937499413202785
0.1386456233478037
0.17167402965029044
0.1874657608712014
0.18341968980465573
0.15896866356789802
0.11679674025454209
0.06276515277582184
0.003889081382827647
-0.052930023826886906
-0.09940755180131088
-0.1256739248479538
-0.124939698664859
-0.09898929761883618
-0.05950249982871671
-0.023865323417245538
-0.006282879940754008
-0.008988608898659014
-0.02193189325962023
-0.03299050618097189
-0.037338892581846125
-0.03598242305181161
-0.029805597827759128
-0.018566531660843183
-0.003271420172949846
0.013160746570903119
0.02752554995267777
0.03780594389601791
0.04281210346297139
0.041480359216146595
0.03369219163210129
0.021259380045413195
0.007511246968810316
-0.0035835046406751773
-0.008482152574252666
-0.006014998086951925
0.0013860102953853412
0.008970401845930745
0.012227312551154508
0.008657209651422373
-0.0014528012536846394
-0.014510159450267651
-0.024123847085031923
-0.023710606946711385
-0.009554333762974557
0.017434532248289933
0.05117111707934839
0.08167894877749751
0.09853828561413616
0.09446879504039578
0.06732862723193075
0.021192139761524315
-0.03445526653868888
-0.08934147238993395
-0.13777065357956544
-0.18029846270070937
-0.2200933636116886
-0.2555718459986194
-0.2765717841433504
-0.26914574042922446
-0.22430419521465395
-0.14377480180517166
-0.04020016736620824
0.06687732678361707
0.15638566101144774
0.2116139091406898
0.22612695232060334
0.2058033734073365
0.1644854987944093
0.11680874175456477
0.07299571583456854
0.03791460588448664
0.013620725000037526
0.0013394314466155244
0.0016401070195361522
0.014974432539888671
0.04174229862193282
0.08047053130918522
0.1265425648897005
0.17376469866821476
0.21616277903801157
0.24776080873062303
0.2635681527417487
0.2616509175302038
0.24158282258309044
0.20148999021907094
0.13891425732890514
0.05459676902840682
-0.04413150122888612
-0.1428764639134929
-0.22478746222111057
-0.27877854739934604
-0.30437915586219244
-0.30865469931470196
-0.29916026654378153
-0.27884585283191426
-0.24654831486726297
-0.20303883331558437
-0.1552597414824062
-0.11273312299332111
-0.08124872640343872
-0.06080157074105064
-0.047222877424858645
-0.035012880598508295
-0.02070128337874931
-0.004885182930841864
0.008628388697728709
0.015410644237313233
0.012752033023070927
0.0014178904738230205
-0.013241869218871008
-0.022897239941543662
-0.02063022745806012
-0.004226261765404041
0.024214522635970903
0.06128866715729153
0.10327189192432282
0.1423387414528275
0.16659759381395117
0.17017981392001702
0.15983030712357096
0.14807377848924555
0.1442930334799102
0.15134444134059427
0.163816055043285
0.16903028990605182
0.15346708470371626
0.11037542935957148
0.04377858172684193
-0.03183566976774041
-0.09669644559619661
-0.13534949664954915
-0.14386546965908137
-0.12849928470560829
-0.09957868304397535
-0.06712667085796702
-0.0391307058862371
-0.02083148301992474
-0.014442978348968218
-0.01894364328810036
-0.029782774290916844
-0.040040867309946965
-0.04391196452671349
-0.040305358987691706
-0.03410843725064877
-0.03354419648523406
-0.043513435981545834
-0.05949831250747815
-0.06919033218985206
-0.06228462168975517
-0.038776379762265084
-0.008059653994199466
0.018228439332916464
0.033159462370591114
0.03723032525916893
0.036027296349094726
0.03606427089745358
0.04235063574179231
0.05622432916509102
0.07210821547123569
0.07916172115444833
0.06878798266893112
0.038437604859351354
-0.00920077158297268
-0.06499507136303292
-0.11335563983629468
-0.13875174893149403
-0.1341442739443151
-0.10353650235398185
-0.05727156286109927
-0.005974512006534413
0.041608697096856676
0.0785015878154717
0.10034481337072955
0.10635271082799387
0.09897743093858037
0.0833628060891596
0.06581446339946397
0.04952357681971985
0.03237815906591475
0.011616069674250398
-0.01095921402026833
-0.030306881347541843
-0.04246928116336805
-0.04645542043517682
-0.044229099952356014
-0.03983212003477413
-0.03716797183386639
-0.03705113707956739
-0.03490743081770358
-0.02303134575036287
0.0010744902485036317
0.02940968349329744
0.048946170112123266
0.05114552422478372
0.03654611169511795
0.014086405522020028
-0.0029601591838670123
-0.003447585005943884
0.015657232101978887
0.0468562428362497
0.07525411978495111
0.08648279359202324
0.07384233192446472
0.03982602009524312
-0.006863790482234483
-0.055062984199634686
-0.0935497914848511
-0.11371673789591828
-0.11428616069116768
-0.10216043446890435
-0.08436528445268345
-0.06105039359064603
-0.02918028943735529
0.010689883055553837
0.05292610971949992
0.08821054507887094
0.1063607366730435
0.10152368527857655
0.07580857747353942
0.03755451870305827
-0.0034641467430740758
-0.04002248013596683
-0.06903399065175769
-0.08998872125374677
-0.10132422613764239
-0.09993900719143915
-0.0864773499078233
-0.06832290293671843
-0.05341125878908709
-0.042810750483991106
-0.03137195377406176
-0.01337346916512356
0.013094817917270268
0.044507708108385446
0.07324985422096206
0.09157284656356235
0.0955760384569118
0.08677521045214506
0.07111718896053852
0.05657775435773832
0.049787135606616253
0.052298611644415946
0.059487658879344825
0.06399394716329182
0.06082802295536177
0.04931620692736043
0.03049904155698238
0.005527986569856827
-0.020490680835023
-0.0372603779401492
-0.03795145336787353
-0.027181428325822002
-0.016741262688884033
-0.015089022469140831
-0.02258026254956659
-0.0348488108401043
-0.04830917779343486
-0.0625873326413903
-0.07877901275289782
-0.09531581648469328
-0.10654326320622624
-0.10644005953474737
-0.09303557637190919
-0.06922351972537331
-0.040277346592756225
-0.010714447804853283
0.01739036126416154
0.04436740024983117
0.0718610629111475
0.10080597199817694
0.12854753870012
0.14719266977869971
0.14699361205504224
0.1245492104358053
0.08701022322958726
0.04599605753031012
0.009225939689933307
-0.020345420240129287
-0.0405174804271435
-0.04904862154384032
-0.04750784197758712
-0.04332831140682115
-0.04577986151901381
-0.05977910096480849
-0.08283814931142666
-0.1063610608195471
-0.11979507263039327
-0.1149143754646026
-0.08804977254044496
-0.04088588043681225
0.01924362717869564
0.08111437684355538
0.13365558424039325
0.16974127744589765
0.1867157587662872
0.1829807033572404
0.15548589137294594
0.10221909929503312
0.027133614344111823
-0.056918642942496905
-0.13077566194590928
-0.17677436169738298
-0.1857804742135175
-0.1597101063287342
-0.11067233109325789
-0.05690375948313858
-0.016251591765737247
-0.0007414380701703804
-0.013443701266255288
-0.04695670786064128
-0.08523285931136718
-0.10954493384950295
-0.10637422814525918
-0.0740482563840826
-0.022797028071009237
0.0338138703138392
0.08727004210045869
0.1342510884622548
0.17261483993272855
0.19920574703334656
0.2097288986957416
0.200375342011294
0.17099078476503501
0.12650478000409787
0.074224380574377
0.02078986236287693
-0.02763899730904864
-0.06555171043820313
-0.09099834857242281
-0.10724908735463529
-0.11982509765691247
-0.13050071055599
-0.13423195105443103
-0.12269138950437349
-0.09103331923750044
-0.042736872266965154
0.010384417720664313
0.053565831610386055
0.07728009796316836
0.08210658302961003
0.07581413186964005
0.06647163400393913
0.05816445340689065
0.05101936335154594
0.043873779142215207
0.03647078227180559
0.02860444671523428
0.017542063061087652
-0.0013951823124538354
-0.029278667947014184
-0.05987577037822912
-0.08375630716516189
-0.09506121861927355
-0.09376017165159879
-0.08368339824453631
-0.07010364531827135
-0.05855234483660224
-0.053596620142784795
-0.056614784013712574
-0.06472821788362977
-0.07274342967514838
-0.07550555893468681
-0.06773965908704348
-0.04412538123576365
-0.0034122579976740702
0.046436945004197816
0.09000381732683568
0.11481369609473856
0.11965398978754083
0.11176762633949427
0.09903080392536816
0.08635110230887723
0.07612422621345402
0.06909551133278294
0.06469104714994693
0.06109899117741174
0.0554508548693941
0.0445136788896685
0.025742841194467313
-0.0014546422116486282
-0.034450489565349296
-0.06745392093854358
-0.09367613411688545
-0.10782806730212074
-0.10700800268569227
-0.09106067761429235
-0.06319105493523258
-0.028259159429172218
0.010022415932354242
0.0480790640741269
0.07978560447078564
0.09738694751984404
0.09552898863974638
0.07488833949224818
0.04231080575677948
0.007414400326109724
-0.02091273560943968
-0.03677504741211441
-0.03918711603045303
-0.03252074704222703
-0.02425094218930781
-0.021152111730270998
-0.02622609370618917
-0.03815108139997406
-0.052429981233844236
-0.06227305600213887
-0.06062213441053725
-0.04468851633278509
-0.01870823478781764
0.008547654538600714
0.02803088832212361
0.03353841136904212
0.024627077981477327
0.007622493656388989
-0.007618424708965722
-0.012876864854261032
-0.005073748929369057
0.013077174346758572
0.0347273634374015
0.052259047840472445
0.061360101049110105
0.06250001396341373
0.05801789300483893
0.049058240138070856
0.03574424251371907
0.018300195295499137
-0.0025468536658668703
-0.025110303933344028
-0.04658272458752518
-0.0638805747349608
-0.0751744202015416
-0.08132612738382904
-0.08549254743440497
-0.08975268793516364
-0.09140749547401372
-0.08349771501889217
-0.06008738051738874
-0.021424160623415525
0.02531547712442147
0.06920511577774374
0.09968562273429138
0.1094235803243377
0.09644221779576839
0.06622888523263144
0.03102512971271887
0.004532242939673213
-0.00489137209860771
0.0019068943069920075
0.01718616199535978
0.03196337265322758
0.03793875291040434
0.02817450540494452
0.0025903640900839728
-0.02832231265406745
-0.049168567163074155
-0.049431876800619695
-0.029119750106987217
0.0021411883362657605
0.030398393953852246
0.04306078198836945
0.03398703152417202
0.008125672871147724
-0.019118229040970137
-0.03049946746056153
-0.01727429107069026
0.015885024045721254
0.0538974928000749
0.08033181692106575
0.08595935803395588
0.07113720974067893
0.042503565566630694
0.008840092894491267
-0.0201893332797701
-0.035669198687561326
-0.0350655438602884
-0.025280206672401093
-0.01685466186421511
-0.01690326120114838
-0.02954069415641114
-0.05794262891527187
-0.10052391889926318
-0.14732831359213217
-0.18323437836025952
-0.1941983556745089
-0.17215143856228612
-0.11790844881341145
-0.041587046863397426
0.040343846871863515
0.11169024208808487
0.16265616904991248
0.19002495811120834
0.19396944391986803
0.1769182255609272
0.14323981081812742
0.09684816877857766
0.03985598243603089
-0.024409950514574785
-0.08790808402196693
-0.13897115872725685
-0.16736904692112425
-0.16799550574046376
-0.13958599374701242
-0.08369469193422546
-0.009046223152797156
0.06599984019946382
0.1201907738008739
0.13984835694131464
0.12413604053646082
0.08278569361580715
0.030526808900873698
-0.01700888822793334
-0.04646133888496275
-0.050735296158134366
-0.03146477880683969
0.0024704973131023378
0.039453772371919
0.07022759525694391
0.09036661978187116
0.09867269276542884
0.09487939489929138
0.07966573878270931
0.055376452250080546
0.025315379049431166
-0.008140467659435782
-0.04411650323347119
-0.08102422147354732
-0.11458069230572823
-0.13860768489432707
-0.14656841816544278
-0.13335915890595282
-0.0990342977088785
-0.05175020770795273
-0.006141422572523106
0.023683955689529856
0.03340307954767015
0.030379184297819436
0.024910513074487172
0.02164206996882725
0.01897229748350765
0.013543112436051625
0.004423097335935829
-0.005496666991179212
-0.01025647457692875
-0.00337316531227325
0.018115816097186904
0.05115167484092552
0.08812416712440665
0.120467258597695
0.1414416730495718
0.14705690342522043
0.1354335966919054
0.10612965012014974
0.06059991999465689
0.002655597798968151
-0.062131722797598404
-0.12659386609065082
-0.18166960494210135
-0.21848802494797565
-0.23265053463666432
-0.22724473812863677
-0.21061815397664307
-0.1884232847992144
-0.15913641087246055
-0.12025175304827873
-0.07524497193070187
-0.03113203176730593
0.0066924701440368994
0.035983119036968686
0.058958212406393984
0.08310450463266572
0.1181447536407951
0.1699928338395727
0.23489043987071323
0.2988524630081472
0.344895822168808
0.3619282960244213
0.3473246208159821
0.303354670510005
0.23358729615011609
0.14251867897269271
0.03723859204474908
-0.07096185217173179
-0.16736092472620118
-0.23810051536681315
-0.2756859966910411
-0.2818610556496365
-0.2662569374831206
-0.24168666561487628
-0.2182405062248002
-0.19951400736372835
-0.18288044248467786
-0.162367700155007
-0.13214293295899307
-0.08965835541265663
-0.037259280837363976
0.018632787585646127
0.06970325760178488
0.10767777208262158
0.12586710431248538
0.12060792334713773
0.09319153667390384
0.051908142754640285
0.010456871340080956
-0.017729318311768077
-0.02389682830879357
-0.0058489795337944295
0.030452910715600495
0.07243325858104648
0.10805560111229356
0.13227719016950765
0.14653776296573184
0.15388609532731368
0.1549642340433168
0.14717374869291877
0.12770619786333512
0.09859416935268911
0.06735824301792631
0.04002997738348696
0.015132880416248787
-0.013272477669095992
-0.04825095492314252
-0.08701891312798915
-0.12489812266708153
-0.15993696216052766
-0.19067023873821876
-0.21162218242819095
-0.21488498273530976
-0.1964741127378543
-0.16114901584283345
-0.11981713039211223
-0.0817964742170357
-0.05184612229598484
-0.032087547075195164
-0.02172649873248913
-0.015887066230942475
-0.00776407186124993
0.007505499341945915
0.030560930417962234
0.058203991664334265
0.08567719488425687
0.10912362981998423
0.12611918183990511
0.1337599885584811
0.1280505296520341
0.10742012227900817
0.07612623774931605
0.04295502570140415
0.016654999156236208
0.001687326611748488
-0.002524675648698793
0.0019700480206505805
0.014678098797262881
0.035697609958934895
0.06425695500627178
0.09767909568710356
0.12850806879428767
0.14418389261006867
0.1334077428471644
0.09371485108255298
0.03328859358968954
-0.0336757355788883
-0.0935389744172432
-0.13669728112990093
-0.15798175228668193
-0.15666643135750138
-0.13669175300477573
-0.10644484910022695
-0.0762255592375165
-0.05254357121858781
-0.034265620750346545
-0.016201206717708305
0.003232524104719234
0.018228555348190498
0.018119766874034368
-0.0057715826640623025
-0.05203593603163735
-0.10599702621072112
-0.1457292230787357
-0.1529116084724999
-0.12122363910389236
-0.05896440174768691
0.014029151606045231
0.07318899134138038
0.09777657772284348
0.07897263218014496
0.02145949570110521
-0.06447038237780554
-0.16831460951177526
-0.27301459688187224
-0.35028131608293045
-0.36897474517651474
-0.3086662819565823
-0.16875020229529925
0.030085841448779793
0.2521465444225017
0.45803062746047896
0.6149916461622753
0.70156403016621
0.7089757595111041
0.6434805174173149
0.5266203532982674
0.38857247208037005
0.2564343310313839
0.1442362350472734
0.04961883660687055
-0.041130323172081804
-0.1431048529143664
-0.26471198204090435
-0.40288488331239825
-0.5418307717020909
-0.6561765190934861
-0.7156055356958058
-0.6918040201550304
-0.5690260797072596
-0.3519984694984428
-0.0633130059882896
0.266548040518469
0.6037442435105078
0.9092887120338775
1.141433910618448
1.2644158960807397
1.2568187021485733
1.1156280139298167
0.8578701622900888
0.5165000256800318
0.1280400455424654
-0.2791289624556679
-0.6889122348096457
-1.0915607018798157
-1.4693805652939809
-1.7895663081374538
-2.0154195853763137
-2.1223823190168236
-2.1051814319891147
-1.978782084808537
-1.7734759055568705
-1.5255038603882651
-1.268977673784488
-1.0292344947652239
-0.8149806000994197
-0.6102433863468173
-0.37543990288805507
-0.06313104240664735
0.36023242168922653
0.8986048084058247
1.5187138457976763
2.1449519156598487
2.668863942248033
2.992098745656799
3.0768271979890303
2.959464290977454
2.7253439088905576
2.4683153193924197
2.254179026858732
2.0999586473987084
1.9782546191514645
1.8414684754137653
1.6463473855066773
1.3678220664845753
1.0030778053870801
0.5690710835045947
0.09602197664469858
-0.3808702338428307
-0.8298435450611716
-1.2268173288399784
-1.5515987038765395
-1.782367167554649
-1.8963625493398553
-1.8794780911988131
-1.7379729321928004
-1.5029443828584306
-1.2348649491305115
-1.024531556471581
-0.9701139500873017
-1.1364659882317167
-1.5245214764778714
-2.068149933604288
-2.655257968242035
-3.159531883228977
-3.4721768150578005
-3.526123497271769
-3.3072425686335674
-2.8511110373205186
-2.22704395666146
-1.5165084633274382
-0.7956664914263523
-0.12378011347427775
0.4648266801282248
0.9632019502221612
1.3867324916301076
1.7626070198698622
2.1177670022535047
2.4676220657180274
2.8071139365050994
3.109640889968754
3.3368850363628457
3.4531885036534264
3.437163331981939
3.2881755137336337
3.0247216932402576
2.674363638191784
2.2648622977704975
1.8230925693584266
1.374832644935859
0.9412461542627746
0.5366848511894087
0.16866799741174598
-0.1621957514428689
-0.4618107103538822
-0.7409022568470487
-1.0109959321224786
-1.2775606104131652
-1.534469472436521
-1.7653817043434203
-1.951844836484483
-2.080373866211829
-2.1424651558584067
-2.1328288811759846
-2.0531939618172683
-1.9167874799822573
-1.743167625839597
-1.5459732855862176
-1.326683469202543
-1.079443451451805
-0.7998441954994859
-0.48991419313949947
-0.15832876076658187
0.1818532006925077
0.5144887788593949
0.8201656104644439
1.079211550285104
1.2762742967217682
1.4008050629956013
1.4455143976676956
1.4065807548997271
1.2868377107704312
1.1009940275287018
0.877005405902687
0.6495854887733032
0.44870775611377955
0.28992173012380484
0.17313864748656138
0.08821581167358511
0.021052134073120732
-0.04274562341596222
-0.11735500849048824
-0.21487668054480563
-0.33840506517604424
-0.4772645104533688
-0.6117342397822079
-0.7227478328358931
-0.7974071551729394
-0.8278319958666485
-0.8092985768044838
-0.7425915431133016
-0.6360396743038401
-0.5024964629133989
-0.35570413183109495
-0.20906736495101808
-0.07322572609075284
0.04722004205367902
0.15380952262321812
0.2504148156038557
0.3377365446284146
0.4114708893131914
0.4673641501434429
0.5067208007406758
0.5353085651876872
0.5582711253268455
0.5767084540585218
0.5874583222979858
0.5839448387958702
0.5561833253682954
0.4930697086043889
0.3892965266583185
0.25227509542757304
0.10378576675359263
-0.028087141277722077
-0.12602186363497211
-0.19377196228410118
-0.2473231300192627
-0.29815608560710843
-0.3457657176060758
-0.38223608852404745
-0.39989938057673685
-0.3941987876282416
-0.36374510725174386
-0.31210633568427465
-0.24883095337721978
-0.18535176060230563
-0.1281933179096386
-0.07684960051508144
-0.028840656135843273
0.014581407965622947
0.048271527746054206
0.0677947119194205
0.07477717725820589
0.07757569208239348
0.0855103524000331
0.10267809306460256
0.12576399768125968
0.14468910888624206
0.14605200776329355
0.11958078161433083
0.06477476126989462
-0.007121214566315287
-0.07899602354785128
-0.13618281930626525
-0.16926664459220966
-0.17280248975498186
-0.14478086659193473
-0.08823220748187122
-0.013946610895918476
0.060785521748098634
0.11992921947776458
0.15525698622079903
0.16662957260113387
0.16077313089998502
0.14903047461614494
0.14087168382342638
0.1371640491468588
0.1286716077277818
0.1013385673129587
0.046139803884546415
-0.034318647035326305
-0.12837352483641779
-0.22176311467726365
-0.30025055767924075
-0.350295408076193
-0.3624601598916609
-0.33611292425105105
-0.28036562955429045
-0.20912418473819006
-0.13434426276563866
-0.06354515254385434
-0.0024168502782423718
0.04437131764245281
0.07781155204326262
0.10724071338402141
0.14556150932937117
0.20164472870696237
0.27606455328985363
0.360939900978687
0.44148219533134725
0.4985238927447956
0.5143955441781973
0.48180145816121683
0.40814840655085743
0.3102911600224522
0.20592749774690755
0.10919421370477228
0.029022770696843475
-0.03231671993278784
-0.07803106523599451
-0.11357295368318454
-0.1450917947833214
-0.17892510317196386
-0.21996575867212786
-0.26988086758009966
-0.32682646641505686
-0.38571865395905613
-0.43769394523471933
-0.4708520777658939
-0.47469471650077427
-0.4458780855187568
-0.3901973318141737
-0.31908112136407407
-0.24401787475494985
-0.1728535808788127
-0.10856367998421959
-0.04951190334926217
0.008322825734524919
0.0670955126415762
0.12401119801524432
0.1723892016397964
0.20616137505403143
0.22406144603744385
0.22993450726522985
0.23162311240677122
0.2423743538167669
0.27994381170677096
0.3615314082244695
0.4985036482877707
0.6890898422558249
0.9137757473344057
1.1397048330298367
1.3285936626698942
1.4406218151037016
1.4329287057405202
1.2667434943049036
0.937251474670959
0.4995823716231138
0.04507240778505972
-0.3579664228608386
-0.7004767171215938
-1.0251586637411467
-1.3918919103461551
-1.838757390457542
-2.3579129115092066
-2.8942645324899487
-3.3637287642368983
-3.6787036337644987
-3.768429339113664
-3.5915818061527247
-3.142302270061392
-2.4506654910772196
-1.5784716447093001
-0.6087808389582565
0.3705983564257447
1.2834570655067887
2.075952724299168
2.7203660166105834
3.2105475192541792
3.5518395268440774
3.751748419122235
3.8144945329028603
3.740578612169623
3.530912459022632
3.193470531763458
2.749617540154455
2.233485912108891
1.680881348998192
1.1172583479607763
0.5556626813011216
0.0031700359591755323
-0.5308443013489315
-1.0289715430401252
-1.465677782528226
-1.8137593866645578
-2.0537595209089625
-2.1788671151571513
-2.192176219253949
-2.098723971741865
-1.8958846248398258
-1.576497344454983
-1.1524020673643007
-0.6340135425901632
0.14759006568789546
1.714786791721017
4.669936461539294
9.04241532645025
13.896227183912034
17.52265825441793
18.12767164693689
14.72256304187152
7.665298367554673
-1.4994550875826196
-10.706873109861007
-18.14722612912366
-22.81341968040495
-24.628790030968847
-24.205817627474932
-22.45037436606634
-20.212546520797282
-18.089416049105207
-16.39361188488444
-15.143053277498549
-13.967290175098888
-12.161241566054608
-9.168048197350243
-5.286724684667682
-1.8437222545249377
-0.4496309863410559
-1.9019500699759035
-5.473883463016875
-8.979525964359024
-9.571854353655418
-4.880488018640506
5.998565286052639
22.05503998462002
40.60715058387886
58.13255599985315
71.37990251560664
78.34049638381231
78.7421125692658
74.03959447702982
66.8080594830277
59.31284005226245
52.035951544705085
43.433632877535615
31.00188457921935
12.811278344090972
-11.289984800043385
-39.28773479620138
-67.5052971636524
-91.74887040493435
-108.57775007118794
-116.15392587987742
-114.47913503278072
-105.1010906581738
-90.45237539717867
-73.1059720636193
-55.22201538368866
-38.27310257561696
-22.99717663693506
-9.507289175060798
2.4739884264047625
13.308445192371178
23.19656305650411
32.094301450195275
39.771557216413
45.934148715112656
50.340870317377
52.87694005289497
53.58841875055544
52.68087298244077
50.45754103298215
47.21636757532841
43.18203952648401
38.50964601527929
33.32195857062293
27.733305895013906
21.85360377650778
15.791197805959083
9.670328398805133
3.655209518618877
-2.05753364003169
-7.2903538199948255
-11.92779173565682
-15.909909069940712
-19.20339854616179
-21.789383199659067
-23.666838473630015
-24.851016230958145
-25.362023977193758
-25.217613451143258
-24.442808799805018
-23.089946326873257
-21.24686032237272
-19.02289169213284
